Tempo total receptor,Tempo total emissor,Id do pacote,Id da mensagem,Distancia (m),Tempo zerado receptor,Tempo zerado emissor,Delta tempo,Velocidade (m/s)
1747351654505185,109580,1,1,1,0,0,0,0
1747351654594431,197404,1,2,1,89246,87824,1422,703.2348804500702
1747351680708829,109580,1,1,1,26203644,0,26203644,0.03816263112107614
1747351680799226,200524,1,2,1,26294041,90944,26203097,0.038163427781074885
1747351680888812,292044,1,3,1,26383627,182464,26201163,0.03816624475791399
1747351680983215,383564,1,4,1,26478030,273984,26204046,0.03816204566271941
1747351681073754,475084,1,5,1,26568569,365504,26203065,0.038163474387442844
1747351681167930,566604,1,6,1,26662745,457024,26205721,0.03815960644624126
1747351681257372,658124,1,7,1,26752187,548544,26203643,0.03816263257746261
1747351681351721,749644,1,8,1,26846536,640064,26206472,0.03815851290475116
1747351681441819,841164,1,9,1,26936634,731584,26205050,0.03816058355164367
1747351681536383,932684,1,10,1,27031198,823104,26208094,0.03815615130196038
1747351681629969,1022124,1,11,1,27124784,912544,26212240,0.03815011612895349
1747351681724812,1115724,1,12,1,27219627,1006144,26213483,0.03814830711355679
1747351681818880,1209324,1,13,1,27313695,1099744,26213951,0.038147626048435045
1747351681912730,1302924,1,14,1,27407545,1193344,26214201,0.03814726224156136
1747351682007079,1396524,1,15,1,27501894,1286944,26214950,0.03814617231770421
1747351682101336,1490124,1,16,1,27596151,1380544,26215607,0.03814521632094958
1747351682191746,1580604,1,17,1,27686561,1471024,26215537,0.038145318175248515
1747351682285587,1674204,1,18,1,27780402,1564624,26215778,0.038144967507735224
1747351682380559,1767804,1,19,1,27875374,1658224,26217150,0.038142971299321246
1747351682474444,1861404,1,20,1,27969259,1751824,26217435,0.038142556661244706
1747351682568972,1955004,1,21,1,28063787,1845424,26218363,0.038141206603936335
1747351682658522,2045484,1,22,1,28153337,1935904,26217433,0.03814255957095418
1747351682752760,2139084,1,23,1,28247575,2029504,26218071,0.038141631396146576
1747351682847012,2232684,1,24,1,28341827,2123104,26218723,0.038140682900536384
1747351682941123,2326284,1,25,1,28435938,2216704,26219234,0.03813993955734939
1747351683034927,2416764,1,26,1,28529742,2307184,26222558,0.03813510489708899
1747351683129997,2510364,1,27,1,28624812,2400784,26224028,0.03813296721617289
1747351683224426,2603964,1,28,1,28719241,2494384,26224857,0.038131761786155786
1747351683318309,2697564,1,29,1,28813124,2587984,26225140,0.038131350299750545
1747351683413621,2791164,1,30,1,28908436,2681584,26226852,0.03812886121445303
1747351683506058,2884764,1,31,1,29000873,2775184,26225689,0.03813055207052902
1747351683600356,2978364,1,32,1,29095171,2868784,26226387,0.038129537248115804
1747351683695121,3071964,1,33,1,29189936,2962384,26227552,0.03812784357457379
1747351683784701,3162444,1,34,1,29279516,3052864,26226652,0.03812915197868184
1747351683875028,3252924,1,35,1,29369843,3143344,26226499,0.03812937441631077
1747351683964912,3343404,1,36,1,29459727,3233824,26225903,0.03813024093012164
1747351684059616,3433884,1,37,1,29554431,3324304,26230127,0.03812410058098461
1747351684149751,3524364,1,38,1,29644566,3414784,26229782,0.03812460202681059
1747351684243773,3617964,1,39,1,29738588,3508384,26230204,0.03812398866589067
1747351684337751,3711564,1,40,1,29832566,3601984,26230582,0.03812343927405042
1747351684431985,3805164,1,41,1,29926800,3695584,26231216,0.03812251784286325
1747351684526170,3898764,1,42,1,30020985,3789184,26231801,0.03812166766589911
1747351684620525,3992364,1,43,1,30115340,3882784,26232556,0.03812057048501107
1747351684714860,4085964,1,44,1,30209675,3976384,26233291,0.03811950242918435
1747351684808491,4179564,1,45,1,30303306,4069984,26233322,0.03811945738324715
1747351684902623,4273172,1,46,1,30397438,4163592,26233846,0.038118695977707576
1747351684997203,4366764,1,47,1,30492018,4257184,26234834,0.03811726043320877
1747351685091295,4460364,1,48,1,30586110,4350784,26235326,0.03811654560724727
1747351685185096,4553964,1,49,1,30679911,4444384,26235527,0.03811625358240374
1747351685279335,4647564,1,50,1,30774150,4537984,26236166,0.03811532523463985
1747351685373412,4741164,1,51,1,30868227,4631584,26236643,0.038114632272124145
1747351685467667,4834764,1,52,1,30962482,4725184,26237298,0.03811368076087713
1747351685562848,4928364,1,53,1,31057663,4818784,26238879,0.038111384255402066
1747351685656547,5021964,1,54,1,31151362,4912384,26238978,0.038111240460661236
1747351685750657,5115564,1,55,1,31245472,5005984,26239488,0.03811049971706765
1747351685845275,5209164,1,56,1,31340090,5099584,26240506,0.03810902122085603
1747351685939164,5302764,1,57,1,31433979,5193184,26240795,0.038108601511501465
1747351686033530,5396364,1,58,1,31528345,5286784,26241561,0.03810748910859381
1747351686127375,5489964,1,59,1,31622190,5380384,26241806,0.038107133327637585
1747351686222061,5583564,1,60,1,31716876,5473984,26242892,0.038105556354078654
1747351686315652,5677164,1,61,1,31810467,5567584,26242883,0.03810556942238397
1747351686409656,5770764,1,62,1,31904471,5661184,26243287,0.03810498280950858
1747351686504559,5864364,1,63,1,31999374,5754784,26244590,0.038103090960841836
1747351686597914,5957964,1,64,1,32092729,5848384,26244345,0.03810344666631993
1747351686697224,6051564,1,65,1,32192039,5941984,26250055,0.03809515827681123
1747351686791057,6145164,1,66,1,32285872,6035584,26250288,0.03809482014063998
1747351686885103,6238764,1,67,1,32379918,6129184,26250734,0.038094172909603215
1747351686979216,6332364,1,68,1,32474031,6222784,26251247,0.038093428475988206
1747351687072959,6425964,1,69,1,32567774,6316384,26251390,0.03809322096848967
1747351687167903,6519564,1,70,1,32662718,6409984,26252734,0.03809127079869091
1747351687261905,6613164,1,71,1,32756720,6503584,26253136,0.03809068752776811
1747351687356306,6706764,1,72,1,32851121,6597184,26253937,0.038089525391944073
1747351687450407,6800364,1,73,1,32945222,6690784,26254438,0.03808879854903007
1747351687544384,6893964,1,74,1,33039199,6784384,26254815,0.038088251621654926
1747351687638106,6987564,1,75,1,33132921,6877984,26254937,0.03808807463525812
1747351687733260,7081164,1,76,1,33228075,6971584,26256491,0.0380858203786637
1747351687827488,7174764,1,77,1,33322303,7065184,26257119,0.03808490946779043
1747351687921853,7268372,1,78,1,33416668,7158792,26257876,0.038083811500975936
1747351688012069,7358844,1,79,1,33506884,7249264,26257620,0.03808418280103071
1747351688105976,7452444,1,80,1,33600791,7342864,26257927,0.03808373753190798
1747351688200468,7546044,1,81,1,33695283,7436464,26258819,0.03808244384486599
1747351688293647,7639644,1,82,1,33788462,7530064,26258398,0.038083054419389945
1747351688388438,7733244,1,83,1,33883253,7623664,26259589,0.038081327167763364
1747351688482187,7826844,1,84,1,33977002,7717264,26259738,0.03808111109105506
1747351688576367,7920444,1,85,1,34071182,7810864,26260318,0.03808027001043932
1747351688670493,8014044,1,86,1,34165308,7904464,26260844,0.038079507269454096
1747351688765602,8107644,1,87,1,34260417,7998064,26262353,0.03807731927143009
1747351688858889,8201252,1,88,1,34353704,8091672,26262032,0.038077784689318786
1747351688954035,8294844,1,89,1,34448850,8185264,26263586,0.03807553165055221
1747351689048118,8388444,1,90,1,34542933,8278864,26264069,0.03807483143605814
1747351689141664,8482044,1,91,1,34636479,8372464,26264015,0.03807490971962969
1747351689236240,8575644,1,92,1,34731055,8466064,26264991,0.03807349486622706
1747351689330554,8669244,1,93,1,34825369,8559664,26265705,0.038072459886380354
1747351689425023,8762844,1,94,1,34919838,8653264,26266574,0.038071200301950305
1747351689518996,8853324,1,95,1,35013811,8743744,26270067,0.038066138164017625
1747351689612551,8946924,1,96,1,35107366,8837344,26270022,0.038066203370518685
1747351689706638,9040524,1,97,1,35201453,8930944,26270509,0.0380654977031469
1747351689800907,9134124,1,98,1,35295722,9024544,26271178,0.038064528358796854
1747351689895164,9227724,1,99,1,35389979,9118144,26271835,0.03806357644983687
1747351689989518,9321324,1,100,1,35484333,9211744,26272589,0.038062484058955896
1747351690083683,9415964,1,101,1,35578498,9306384,26272114,0.03806317222892684
1747351690182123,9510604,1,102,1,35676938,9401024,26275914,0.03805766756581712
1747351690276537,9605244,1,103,1,35771352,9495664,26275688,0.03805799490388225
1747351690371008,9699884,1,104,1,35865823,9590304,26275519,0.03805823968691161
1747351690464873,9794524,1,105,1,35959688,9684944,26274744,0.0380593622529681
1747351690562883,9889164,1,106,1,36057698,9779584,26278114,0.038054481383253
1747351690656877,9983804,1,107,1,36151692,9874224,26277468,0.038055416906986626
1747351690752006,10078444,1,108,1,36246821,9968864,26277957,0.03805470874314925
1747351690846124,10171004,1,109,1,36340939,10061424,26279515,0.03805245264229572
1747351690943906,10266684,1,110,1,36438721,10157104,26281617,0.03804940921253057
1747351691038289,10362364,1,111,1,36533104,10252784,26280320,0.03805128704673307
1747351691136293,10458044,1,112,1,36631108,10348464,26282644,0.038047922423634396
1747351691230370,10550604,1,113,1,36725185,10441024,26284161,0.038045726473825814
1747351691325155,10646284,1,114,1,36819970,10536704,26283266,0.038047022010126136
1747351691418737,10738844,1,115,1,36913552,10629264,26284288,0.03804554264509657
1747351691513198,10834524,1,116,1,37008013,10724944,26283069,0.03804730718471271
1747351691611405,10930212,1,117,1,37106220,10820632,26285588,0.03804366103584976
1747351691706313,11025884,1,118,1,37201128,10916304,26284824,0.038044766820580576
1747351691804580,11121564,1,119,1,37299395,11011984,26287411,0.038041022754199724
1747351691902644,11217244,1,120,1,37397459,11107664,26289795,0.03803757313436639
1747351691997038,11312924,1,121,1,37491853,11203344,26288509,0.03803943388345075
1747351692093937,11408604,1,122,1,37588752,11299024,26289728,0.03803767007403044
1747351692188899,11504284,1,123,1,37683714,11394704,26289010,0.03803870895100272
1747351692287269,11599964,1,124,1,37782084,11490384,26291700,0.038034817071547294
1747351692381806,11695644,1,125,1,37876621,11586064,26290557,0.038036470661310065
1747351692480110,11791324,1,126,1,37974925,11681744,26293181,0.03803267470756011
1747351692574493,11887004,1,127,1,38069308,11777424,26291884,0.03803455089030516
1747351692671951,11982684,1,128,1,38166766,11873104,26293662,0.03803197896131775
1747351692766489,12078364,1,129,1,38261304,11968784,26292520,0.038033630857749655
1747351692864710,12174044,1,130,1,38359525,12064464,26295061,0.03802995551141714
1747351692958760,12269724,1,131,1,38453575,12160144,26293431,0.038032313089912076
1747351693057160,12365404,1,132,1,38551975,12255824,26296151,0.0380283791342695
1747351693151241,12461092,1,133,1,38646056,12351512,26294544,0.0380307032515947
1747351693249997,12556764,1,134,1,38744812,12447184,26297628,0.038026243279431896
1747351693348616,12652444,1,135,1,38843431,12542864,26300567,0.038021993974502524
1747351693442420,12748124,1,136,1,38937235,12638544,26298691,0.03802470624868743
1747351693541087,12843804,1,137,1,39035902,12734224,26301678,0.038020387900726337
1747351693635180,12939484,1,138,1,39129995,12829904,26300091,0.03802268212684131
1747351693733133,13035164,1,139,1,39227948,12925584,26302364,0.038019396279361045
1747351693827753,13130844,1,140,1,39322568,13021264,26301304,0.03802092854407523
1747351693925886,13226524,1,141,1,39420701,13116944,26303757,0.038017382840025475
1747351694020215,13322204,1,142,1,39515030,13212624,26302406,0.038019335569529265
1747351694117904,13417884,1,143,1,39612719,13308304,26304415,0.03801643184233521
1747351694212877,13513564,1,144,1,39707692,13403984,26303708,0.038017453660905906
1747351694311115,13609244,1,145,1,39805930,13499664,26306266,0.03801375687450283
1747351694405350,13704924,1,146,1,39900165,13595344,26304821,0.038015845080261144
1747351694503406,13800604,1,147,1,39998221,13691024,26307197,0.03801241158455612
1747351694597798,13896284,1,148,1,40092613,13786704,26305909,0.03801427276282299
1747351694695898,13991972,1,149,1,40190713,13882392,26308321,0.03801078753752472
1747351694790160,14087644,1,150,1,40284975,13978064,26306911,0.03801282484287114
1747351694888610,14183324,1,151,1,40383425,14073744,26309681,0.03800882268393904
1747351694986804,14279004,1,152,1,40481619,14169424,26312195,0.03800519112905632
1747351695080827,14374684,1,153,1,40575642,14265104,26310538,0.03800758464156073
1747351695174817,14467244,1,154,1,40669632,14357664,26311968,0.03800551900944848
1747351695268822,14559804,1,155,1,40763637,14450224,26313413,0.03800343193792458
1747351695358813,14652364,1,156,1,40853628,14542784,26310844,0.038007142606295716
1747351695453252,14744924,1,157,1,40948067,14635344,26312723,0.03800442850403586
1747351695547766,14837484,1,158,1,41042581,14727904,26314677,0.03800160647991233
1747351695641967,14930044,1,159,1,41136782,14820464,26316318,0.03799923682332764
1747351695736387,15025724,1,160,1,41231202,14916144,26315058,0.038001056277360286
1747351695834387,15121404,1,161,1,41329202,15011824,26317378,0.03799770630645651
1747351695928313,15217084,1,162,1,41423128,15107504,26315624,0.03800023894550249
1747351696027093,15312764,1,163,1,41521908,15203184,26318724,0.037995763016474504
1747351696121433,15408444,1,164,1,41616248,15298864,26317384,0.037997697643504386
1747351696219567,15504124,1,165,1,41714382,15394544,26319838,0.037994154827244754
1747351696313524,15599804,1,166,1,41808339,15490224,26318115,0.03799664223672554
1747351696412103,15695484,1,167,1,41906918,15585904,26321014,0.03799245728147099
1747351696506102,15791164,1,168,1,42000917,15681584,26319333,0.037994883836911825
1747351696604180,15886844,1,169,1,42098995,15777264,26321731,0.03799142237263955
1747351696702176,15982524,1,170,1,42196991,15872944,26324047,0.03798807987236917
1747351696796670,16078204,1,171,1,42291485,15968624,26322861,0.037989791459218665
1747351696894839,16173884,1,172,1,42389654,16064304,26325350,0.03798619961368035
1747351696989346,16269564,1,173,1,42484161,16159984,26324177,0.03798789227104802
1747351697083268,16362124,1,174,1,42578083,16252544,26325539,0.03798592689783104
1747351697177672,16457804,1,175,1,42672487,16348224,26324263,0.03798776816657697
1747351697271558,16550364,1,176,1,42766373,16440784,26325589,0.03798585475143595
1747351697365836,16642924,1,177,1,42860651,16533344,26327307,0.03798337596777369
1747351697459730,16735484,1,178,1,42954545,16625904,26328641,0.03798145145433066
1747351697550730,16828044,1,179,1,43045545,16718464,26327081,0.03798370202910076
1747351697644879,16920612,1,180,1,43139694,16811032,26328662,0.03798142115995108
1747351697738947,17013164,1,181,1,43233762,16903584,26330178,0.03797923432192521
1747351697832924,17105724,1,182,1,43327739,16996144,26331595,0.03797719051960202
1747351697927267,17198284,1,183,1,43422082,17088704,26333378,0.037974619131658685
1747351698017166,17290844,1,184,1,43511981,17181264,26330717,0.03797845687225304
1747351698111421,17383404,1,185,1,43606236,17273824,26332412,0.03797601222402262
1747351698205484,17475964,1,186,1,43700299,17366384,26333915,0.03797384475494813
1747351698300285,17568524,1,187,1,43795100,17458944,26336156,0.03797061347905139
1747351698389799,17661084,1,188,1,43884614,17551504,26333110,0.03797500561080708
1747351698483602,17753644,1,189,1,43978417,17644064,26334353,0.037973213163809263
1747351698578007,17846204,1,190,1,44072822,17736624,26336198,0.03797055292491346
1747351698672152,17938764,1,191,1,44166967,17829184,26337783,0.03796826786825603
1747351698762987,18031324,1,192,1,44257802,17921744,26336058,0.03797075477279097
1747351698857408,18123884,1,193,1,44352223,18014304,26337919,0.037968071813114776
1747351698951253,18216444,1,194,1,44446068,18106864,26339204,0.03796621948028498
1747351699045678,18309004,1,195,1,44540493,18199424,26341069,0.037963531396542786
1747351699139149,18401564,1,196,1,44633964,18291984,26341980,0.03796221848167829
1747351699229388,18494124,1,197,1,44724203,18384544,26339659,0.03796556363922555
1747351699323462,18586684,1,198,1,44818277,18477104,26341173,0.0379633815092441
1747351699417873,18679244,1,199,1,44912688,18569664,26343024,0.037960714001551224
1747351699512484,18771804,1,200,1,45007299,18662224,26345075,0.03795775870822155
1747351699602310,18864364,1,201,1,45097125,18754784,26342341,0.03796169824086629
1747351699696740,18956924,1,202,1,45191555,18847344,26344211,0.03795900359285765
1747351699791004,19049492,1,203,1,45285819,18939912,26345907,0.03795656000759435
1747351699885002,19142044,1,204,1,45379817,19032464,26347353,0.03795447686908055
1747351699975096,19234604,1,205,1,45469911,19125024,26344887,0.03795802957894638
1747351700068906,19327164,1,206,1,45563721,19217584,26346137,0.03795622864938416
1747351700163884,19419724,1,207,1,45658699,19310144,26348555,0.03795274541620973
1747351700257793,19512284,1,208,1,45752608,19402704,26349904,0.03795080240140534
1747351700347830,19604844,1,209,1,45842645,19495264,26347381,0.03795443653393861
1747351700442090,19697404,1,210,1,45936905,19587824,26349081,0.03795198777520931
1747351700536611,19789964,1,211,1,46031426,19680384,26351042,0.03794916345243577
1747351700630533,19882524,1,212,1,46125348,19772944,26352404,0.03794720208448535
1747351700720923,19975084,1,213,1,46215738,19865504,26350234,0.03795032712043468
1747351700814833,20067644,1,214,1,46309648,19958064,26351584,0.0379483829131486
1747351700908579,20160204,1,215,1,46403394,20050624,26352770,0.03794667505541163
1747351701002854,20252764,1,216,1,46497669,20143184,26354485,0.03794420570161018
1747351701097264,20345324,1,217,1,46592079,20235744,26356335,0.037941542327489766
1747351701187817,20437884,1,218,1,46682632,20328304,26354328,0.037944431745707954
1747351701283920,20530444,1,219,1,46778735,20420864,26357871,0.03793933129121089
1747351701375433,20623004,1,220,1,46870248,20513424,26356824,0.037940838395399995
1747351701470344,20715564,1,221,1,46965159,20605984,26359175,0.03793745441577743
1747351701560473,20808124,1,222,1,47055288,20698544,26356744,0.03794095355632699
1747351701654581,20900684,1,223,1,47149396,20791104,26358292,0.03793872531649623
1747351701748363,20993244,1,224,1,47243178,20883664,26359514,0.037936966516150486
1747351701842325,21085804,1,225,1,47337140,20976224,26360916,0.03793494884623888
1747351701933320,21178364,1,226,1,47428135,21068784,26359351,0.03793720110938999
1747351702027473,21270924,1,227,1,47522288,21161344,26360944,0.037934908552592045
1747351702121564,21363484,1,228,1,47616379,21253904,26362475,0.0379327054838364
1747351702214888,21456044,1,229,1,47709703,21346464,26363239,0.03793160620362316
1747351702309607,21548604,1,230,1,47804422,21439024,26365398,0.037928500074226074
1747351702399426,21641164,1,231,1,47894241,21531584,26362657,0.03793244360763788
1747351702493402,21733724,1,232,1,47988217,21624144,26364073,0.037930406276753974
1747351702587564,21826284,1,233,1,48082379,21716704,26365675,0.03792810159421293
1747351702682596,21918844,1,234,1,48177411,21809264,26368147,0.03792454585451151
1747351702772314,22011404,1,235,1,48267129,21901824,26365305,0.03792863386181195
1747351702866395,22103964,1,236,1,48361210,21994384,26366826,0.0379264459059274
1747351702960499,22196524,1,237,1,48455314,22086944,26368370,0.03792422512275124
1747351703055164,22289084,1,238,1,48549979,22179504,26370475,0.03792119785479784
1747351703145135,22381644,1,239,1,48639950,22272064,26367886,0.037924921247004785
1747351703239384,22474204,1,240,1,48734199,22364624,26369575,0.03792249211449179
1747351703333492,22566764,1,241,1,48828307,22457184,26371123,0.03792026604251931
1747351703428062,22659324,1,242,1,48922877,22549744,26373133,0.037917375990179095
1747351703517733,22751884,1,243,1,49012548,22642304,26370244,0.03792153003969171
1747351703612114,22844452,1,244,1,49106929,22734872,26372057,0.03791892304798219
1747351703706522,22937004,1,245,1,49201337,22827424,26373913,0.0379162545959714
1747351703800356,23029564,1,246,1,49295171,22919984,26375187,0.03791442312807109
1747351703894244,23122124,1,247,1,49389059,23012544,26376515,0.03791251421956236
