Tempo total receptor,Tempo total emissor,Id do pacote,Id da mensagem,Distancia (m),Tempo zerado receptor,Tempo zerado emissor,Delta tempo,Velocidade (m/s)
1747961095154273,109580,1,1,200,0,0,0,0
1747961095244290,197404,1,2,200,90017,87824,2193,91199.27040583675
1747961095342649,285804,1,3,200,188376,176224,12152,16458.196181698488
1747961095424189,374204,1,4,200,269916,264624,5292,37792.89493575208
1747961095510863,462604,1,5,200,356590,353024,3566,56085.24957936063
1747961095616933,551004,1,6,200,462660,441424,21236,9417.969485778865
1747961095796779,730924,1,8,200,642506,621344,21162,9450.902561194594
1747961095878721,822444,1,9,200,724448,712864,11584,17265.193370165744
1747961095981817,910844,1,10,200,827544,801264,26280,7610.3500761035
1747961096088086,1003404,1,11,200,933813,893824,39989,5001.375378229013
1747961096153281,1097004,1,12,200,999008,987424,11584,17265.193370165744
1747961096432405,1374684,1,15,200,1278132,1265104,13028,15351.550506601166
1747961096530597,1465164,1,16,200,1376324,1355584,20740,9643.201542912246
1747961096616763,1555644,1,17,200,1462490,1446064,16426,12175.818823815902
1747961096706666,1646124,1,18,200,1552393,1536544,15849,12619.092687235789
1747961096797075,1736604,1,19,200,1642802,1627024,15778,12675.877804537964
1747961096899197,1827084,1,20,200,1744924,1717504,27420,7293.946024799417
1747961096989436,1917564,1,21,200,1835163,1807984,27179,7358.622465874389
1747961097075472,2008044,1,22,200,1921199,1898464,22735,8797.009016934244
1747961097160959,2098524,1,23,200,2006686,1988944,17742,11272.686281140795
1747961097259796,2189004,1,24,200,2105523,2079424,26099,7663.128855511705
1747961097341475,2279484,1,25,200,2187202,2169904,17298,11562.030292519366
1747961097443922,2369964,1,26,200,2289649,2260384,29265,6834.102169827439
1747961097525977,2460444,1,27,200,2371704,2350864,20840,9596.928982725527
1747961097616040,2550924,1,28,200,2461767,2441344,20423,9792.880575821378
1747961097726005,2641404,1,29,200,2571732,2531824,39908,5011.526510975244
1747961098566311,3480684,1,38,200,3412038,3371104,40934,4885.913910196902
1747961099135411,4042284,1,44,200,3981138,3932704,48434,4129.330635503985
1747961099225779,4135884,1,45,200,4071506,4026304,45202,4424.582983053847
1747961099307650,4226364,1,46,200,4153377,4116784,36593,5465.526193534282
1747961099418123,4316844,1,47,200,4263850,4207264,56586,3534.443148481957
1747961099495868,4410444,1,48,200,4341595,4300864,40731,4910.264908791829
1747961099586274,4500924,1,49,200,4432001,4391344,40657,4919.202105418502
1747961099676152,4594524,1,50,200,4521879,4484944,36935,5414.9180993637465
1747961099787133,4685004,1,51,200,4632860,4575424,57436,3482.136639041716
1747961099967113,4869084,1,53,200,4812840,4759504,53336,3749.812509374531
1747961100155331,5053164,1,55,200,5001058,4943584,57474,3479.8343598844694
1747961100524010,5424444,1,59,200,5369737,5314864,54873,3644.779764182749
1747961100806014,5702124,1,62,200,5651741,5592544,59197,3378.5495886615877
1747961100913083,5792604,1,63,200,5758810,5683024,75786,2639.009843506716
1747961100974198,5886204,1,64,200,5819925,5776624,43301,4618.830973880511
1747961101076656,5979804,1,65,200,5922383,5870224,52159,3834.429341053318
1747961101161957,6070292,1,66,200,6007684,5960712,46972,4257.855743847398
1747961101252452,6160764,1,67,200,6098179,6051184,46995,4255.771890626662
1747961101342791,6251244,1,68,200,6188518,6141664,46854,4268.578990054211
1747961101465797,6341724,1,69,200,6311524,6232144,79380,2519.5263290501384
1747961101539564,6435324,1,70,200,6385291,6325744,59547,3358.6914538095957
1747961101629810,6525804,1,71,200,6475537,6416224,59313,3371.942070035237
1747961101711382,6616284,1,72,200,6557109,6506704,50405,3967.8603313163376
1747961101817109,6706764,1,73,200,6662836,6597184,65652,3046.3656857369156
1747961101895046,6797244,1,74,200,6740773,6687664,53109,3765.840064772449
1747961101985912,6887724,1,75,200,6831639,6778144,53495,3738.667165155622
1747961102075159,6978204,1,76,200,6920886,6868624,52262,3826.87229727144
1747961102182635,7068692,1,77,200,7028362,6959112,69250,2888.0866425992776
1747961102259856,7159164,1,78,200,7105583,7049584,55999,3571.4923480776442
1747961102350137,7249644,1,79,200,7195864,7140064,55800,3584.229390681003
1747961102439722,7340124,1,80,200,7285449,7230544,54905,3642.6554958564793
1747961102530508,7430604,1,81,200,7376235,7321024,55211,3622.46653746536
1747961102624516,7521084,1,82,200,7470243,7411504,58739,3404.8928309981443
1747961102714912,7611564,1,83,200,7560639,7501984,58655,3409.768988151053
1747961102804744,7702044,1,84,200,7650471,7592464,58007,3447.8597410657335
1747961102894690,7792524,1,85,200,7740417,7682944,57473,3479.894907173803
1747961102988926,7883004,1,86,200,7834653,7773424,61229,3266.4260399483906
1747961103079140,7973484,1,87,200,7924867,7863904,60963,3280.6784443022816
1747961103169526,8063964,1,88,200,8015253,7954384,60869,3285.744796201679
1747961103267646,8154444,1,89,200,8113373,8044864,68509,2919.324468318031
1747961103357459,8244924,1,90,200,8203186,8135344,67842,2948.026296394564
1747961103451612,8335404,1,91,200,8297339,8225824,71515,2796.6160945256242
1747961103533369,8425884,1,92,200,8379096,8316304,62792,3185.119123455217
1747961103624306,8516364,1,93,200,8470033,8406784,63249,3162.1053297285334
1747961103717934,8606844,1,94,200,8563661,8497264,66397,3012.184285434583
1747961103808562,8697324,1,95,200,8654289,8587744,66545,3005.4850101435118
1747961103902178,8787804,1,96,200,8747905,8678224,69681,2870.222872806073
1747961103991999,8878284,1,97,200,8837726,8768704,69022,2897.6268436150795
1747961104090638,8968764,1,98,200,8936365,8859184,77181,2591.3113331001155
1747961104266644,9152844,1,100,200,9112371,9043264,69107,2894.0628301040415
1747961104360778,9244364,1,101,200,9206505,9134784,71721,2788.5835389913696
1747961104451662,9335884,1,102,200,9297389,9226304,71085,2813.5330941830207
1747961104545820,9427404,1,103,200,9391547,9317824,73723,2712.8575885408895
1747961104635572,9518924,1,104,200,9481299,9409344,71955,2779.5149746369257
1747961104745728,9610444,1,105,200,9591455,9500864,90591,2207.724829177291
1747961104819732,9701964,1,106,200,9665459,9592384,73075,2736.9141293191924
1747961104925916,9793484,1,107,200,9771643,9683904,87739,2279.4880269891382
1747961105012804,9888124,1,108,200,9858531,9778544,79987,2500.406316026354
1747961105110728,9979644,1,109,200,9956455,9870064,86391,2315.05596647799
1747961105212689,10074284,1,110,200,10058416,9964704,93712,2134.1983950828067
1747961105290521,10166844,1,111,200,10136248,10057264,78984,2532.158411830244
1747961105384973,10259404,1,112,200,10230700,10149824,80876,2472.9215094712895
1747961105475637,10351964,1,113,200,10321364,10242384,78980,2532.286654849329
1747961105573619,10444524,1,114,200,10419346,10334944,84402,2369.6120945001303
1747961105663544,10537084,1,115,200,10509271,10427504,81767,2445.9745374050653
1747961105757400,10629644,1,116,200,10603127,10520064,83063,2407.8109386850947
1747961105852067,10722204,1,117,200,10697794,10612624,85170,2348.2446870963954
1747961105945977,10814764,1,118,200,10791704,10705184,86520,2311.604253351826
1747961106035709,10907324,1,119,200,10881436,10797744,83692,2389.7146680686324
1747961106129902,10999884,1,120,200,10975629,10890304,85325,2343.9789041898625
1747961106224366,11092444,1,121,200,11070093,10982864,87229,2292.8154627474805
1747961106315104,11185004,1,122,200,11160831,11075424,85407,2341.7284297540014
1747961106408743,11277564,1,123,200,11254470,11167984,86486,2312.5130078856696
1747961106523692,11370124,1,124,200,11369419,11260544,108875,1836.9690011481057
1747961106593626,11462692,1,125,200,11439353,11353112,86241,2319.0825709349383
1747961106716541,11558364,1,126,200,11562268,11448784,113484,1762.3629762785943
1747961107083858,11937964,1,130,200,11929585,11828384,101201,1976.2650566694006
1747961107191011,12033644,1,131,200,12036738,11924064,112674,1775.0323943411968
1747961107269025,12129324,1,132,200,12114752,12019744,95008,2105.0858875042104
1747961107367211,12221884,1,133,200,12212938,12112304,100634,1987.3998847308067
1747961107453647,12314444,1,134,200,12299374,12204864,94510,2116.1781822029416
1747961107568217,12407004,1,135,200,12413944,12297424,116520,1716.4435290078957
1747961107653956,12499564,1,136,200,12499683,12389984,109699,1823.1706761228452
1747961107945304,12783484,1,139,200,12791031,12673904,117127,1707.5482168927747
1747961108026271,12876044,1,140,200,12871998,12766464,105534,1895.1238463433585
1747961108141810,12971724,1,141,200,12987537,12862144,125393,1594.9853660092667
1747961108616532,13450124,1,146,200,13462259,13340544,121715,1643.1828451710965
1747961108801020,13641484,1,148,200,13646747,13531904,114843,1741.5079717527408
1747961108895274,13737164,1,149,200,13741001,13627584,113417,1763.404075226818
1747961109849762,14693964,1,159,200,14695489,14584384,111105,1800.0990054452996
1747961109942782,14786524,1,160,200,14788509,14676944,111565,1792.6769148030296
1747961110045421,14879084,1,161,200,14891148,14769504,121644,1644.1419223307355
1747961110131981,14971644,1,162,200,14977708,14862064,115644,1729.445539759953
1747961110222097,15064204,1,163,200,15067824,14954624,113200,1766.7844522968198
1747961110316391,15156764,1,164,200,15162118,15047184,114934,1740.1291175805245
1747961110713436,15536364,1,168,200,15559163,15426784,132379,1510.8136486905023
1747961110795688,15628924,1,169,200,15641415,15519344,122071,1638.3907725831689
1747961110885647,15721492,1,170,200,15731374,15611912,119462,1674.1725402219954
1747961110979797,15814044,1,171,200,15825524,15704464,121060,1652.0733520568313
1747961111082610,15906604,1,172,200,15928337,15797024,131313,1523.0784461553692
1747961111164639,15999164,1,173,200,16010366,15889584,120782,1655.8758755443691
1747961111266042,16091724,1,174,200,16111769,15982144,129625,1542.9122468659596
1747961111373144,16184284,1,175,200,16218871,16074704,144167,1387.2800294103367
1747961111451209,16276844,1,176,200,16296936,16167264,129672,1542.3530137577889
1747961111541133,16369404,1,177,200,16386860,16259824,127036,1574.356875216474
1747961111639720,16461964,1,178,200,16485447,16352384,133063,1503.0474286616115
1747961111729501,16554524,1,179,200,16575228,16444944,130284,1535.1079180866413
1747961111925772,16742764,1,181,200,16771499,16633184,138315,1445.974767740303
1747961112028516,16838444,1,182,200,16874243,16728864,145379,1375.7145117245268
1747961112491613,17313724,1,187,200,17337340,17204144,133196,1501.5465929907805
1747961112585685,17406284,1,188,200,17431412,17296704,134708,1484.6928170561512
1747961112675837,17498844,1,189,200,17521564,17389264,132300,1511.715797430083
1747961112774172,17591404,1,190,200,17619899,17481824,138075,1448.4881405033495
1747961112865373,17683964,1,191,200,17711100,17574384,136716,1462.8865677755346
1747961112958131,17776524,1,192,200,17803858,17666944,136914,1460.7709949311245
1747961113051650,17869084,1,193,200,17897377,17759504,137873,1450.6103443023653
1747961113142187,17961644,1,194,200,17987914,17852064,135850,1472.211998527788
1747961113236130,18054204,1,195,200,18081857,17944624,137233,1457.3754126194137
1747961113330680,18146764,1,196,200,18176407,18037184,139223,1436.5442491542344
1747961113429479,18239324,1,197,200,18275206,18129744,145462,1374.9295348613382
1747961113514802,18331884,1,198,200,18360529,18222304,138225,1446.9162597214688
1747961113609357,18424444,1,199,200,18455084,18314864,140220,1426.330052774212
1747961113715769,18517012,1,200,200,18561496,18407432,154064,1298.161802887112
1747961113797381,18609564,1,201,200,18643108,18499984,143124,1397.389676085073
1747961113896006,18702124,1,202,200,18741733,18592544,149189,1340.5814101575854
1747961113986511,18794684,1,203,200,18832238,18685104,147134,1359.3051232210096
1747961114071826,18887244,1,204,200,18917553,18777664,139889,1429.704980377299
1747961114182256,18982932,1,205,200,19027983,18873352,154631,1293.401711170464
1747961116210053,20992204,1,226,200,21055780,20882624,173156,1155.0278361708517
1747961116390257,21180452,1,228,200,21235984,21070872,165112,1211.2989970444303
1747961116484538,21276124,1,229,200,21330265,21166544,163721,1221.590388526823
1747961116578019,21368684,1,230,200,21423746,21259104,164642,1214.7568664131873
1747961116669005,21461244,1,231,200,21514732,21351664,163068,1226.4822037432239
1747961116758711,21553804,1,232,200,21604438,21444224,160214,1248.3303581459797
1747961116856659,21646372,1,233,200,21702386,21536792,165594,1207.773228498617
1747961116947705,21738924,1,234,200,21793432,21629344,164088,1218.8581736629126
1747961117045818,21831484,1,235,200,21891545,21721904,169641,1178.9602749335363
1747961117136026,21924044,1,236,200,21981753,21814464,167289,1195.5358690649116
1747961117230138,22016604,1,237,200,22075865,21907024,168841,1184.5464075668824
1747961117320047,22109164,1,238,200,22165774,21999584,166190,1203.4418436729045
1747961117430822,22201724,1,239,200,22276549,22092144,184405,1084.5692904205416
1747961117614982,22389964,1,241,200,22460709,22280384,180325,1109.1085539997227
1747961117708896,22482524,1,242,200,22554623,22372944,181679,1100.842695083086
1747961117791240,22575084,1,243,200,22636967,22465504,171463,1166.4324081580282
1747961117996129,22763324,1,245,200,22841856,22653744,188112,1063.1963936378327
1747961118082395,22859004,1,246,200,22928122,22749424,178698,1119.206706286584
1747961118561432,23337404,1,251,200,23407159,23227824,179335,1115.2312710848412
1747961118658784,23433084,1,252,200,23504511,23323504,181007,1104.9296436049435
1747961118749993,23525644,1,253,200,23595720,23416064,179656,1113.2386338335484
1747961118839294,23618204,1,254,200,23685021,23508624,176397,1133.8061304897476
1747961118946319,23710764,1,255,200,23792046,23601184,190862,1047.877524074986
1747961119048609,23806444,1,256,200,23894336,23696864,197472,1012.8018149408523
1747961119227093,23994684,1,258,200,24072820,23885104,187716,1065.4392806153978
1747961119318618,24090364,1,259,200,24164345,23980784,183561,1089.5560603831968
1747961119417440,24186044,1,260,200,24263167,24076464,186703,1071.220066094278
1747961119515599,24278604,1,261,200,24361326,24169024,192302,1040.0307849112335
1747961119814035,24562524,1,264,200,24659762,24452944,206818,967.0338171725865
1747961119900001,24658204,1,265,200,24745728,24548624,197104,1014.6927510349866
1747961119990198,24750764,1,266,200,24835925,24641184,194741,1027.005099080317
1747961120093165,24843324,1,267,200,24938892,24733744,205148,974.9059215785677
1747961120580628,25318604,1,272,200,25426355,25209024,217331,920.2552788143431
1747961120772980,25509964,1,274,200,25618707,25400384,218323,916.0738905200094
1747961121444774,26176604,1,281,200,26290501,26067024,223477,894.9466835513274
1747961121534536,26272284,1,282,200,26380263,26162704,217559,919.2908590313432
1747961122582853,27324764,1,293,200,27428580,27215184,213396,937.2246902472399
1747961123274743,27994524,1,300,200,28120470,27884944,235526,849.1631497159549
1747961123827542,28565484,1,306,200,28673269,28455904,217365,920.11133347135
1747961123942618,28661164,1,307,200,28788345,28551584,236761,844.733718813487
1747961124601643,29330924,1,314,200,29447370,29221344,226026,884.8539548547512
1747961124704200,29426604,1,315,200,29549927,29317024,232903,858.7265943332632
1747961124790201,29522284,1,316,200,29635928,29412704,223224,895.9610077769415
1747961125089957,29806204,1,319,200,29935684,29696624,239060,836.6100560528738
1747961125171496,29898772,1,320,200,30017223,29789192,228031,877.0737312032136
1747961125368050,30087004,1,322,200,30213777,29977424,236353,846.1919247904617
1747961125559797,30275244,1,324,200,30405524,30165664,239860,833.8197281747687
1747961125658849,30367804,1,325,200,30504576,30258224,246352,811.8464635968046
1747961125736903,30463484,1,326,200,30582630,30353904,228726,874.4086811293862
1747961125826977,30556044,1,327,200,30672704,30446464,226240,884.0169731258841
1747961125937070,30648604,1,328,200,30782797,30539024,243773,820.4354050694704
1747961126019349,30744284,1,329,200,30865076,30634704,230372,868.1610612400813
1747961126117925,30836844,1,330,200,30963652,30727264,236388,846.0666362082678
1747961126215616,30929404,1,331,200,31061343,30819824,241519,828.092199785524
1747961126302366,31021964,1,332,200,31148093,30912384,235709,848.5038755414515
1747961126404061,31114524,1,333,200,31249788,31004944,244844,816.8466452108281
1747961126486558,31207084,1,334,200,31332285,31097504,234781,851.8576886545334
1747961126593073,31299644,1,335,200,31438800,31190064,248736,804.0653544320082
1747961126793647,31491004,1,337,200,31639374,31381424,257950,775.3440589261485
1747961126862925,31583564,1,338,200,31708652,31473984,234668,852.2678848415635
1747961126957883,31676124,1,339,200,31803610,31566544,237066,843.6469168923422
1747961127067938,31768684,1,340,200,31913665,31659104,254561,785.6663039507231
1747961127162378,31864364,1,341,200,32008105,31754784,253321,789.5121209848373
1747961127243702,31956924,1,342,200,32089429,31847344,242085,826.1561021955099
1747961127342459,32049484,1,343,200,32188186,31939904,248282,805.5356409244326
1747961127427846,32142044,1,344,200,32273573,32032464,241109,829.5003504638981
1747961127526810,32234604,1,345,200,32372537,32125024,247513,808.0383656616016
1747961127612527,32327164,1,346,200,32458254,32217584,240670,831.013420866747
1747961127707337,32419724,1,347,200,32553064,32310144,242920,823.3163181294253
1747961127801242,32512284,1,348,200,32646969,32402704,244265,818.7828792499948
1747961127895488,32604844,1,349,200,32741215,32495264,245951,813.1701029879936
1747961127997508,32700524,1,350,200,32843235,32590944,252291,792.7353730414482
1747961128083899,32793084,1,351,200,32929626,32683504,246122,812.6051307887958
1747961128177652,32885644,1,352,200,33023379,32776064,247315,808.6852799061925
1747961128272267,32978204,1,353,200,33117994,32868624,249370,802.0210931547499
1747961128370588,33070764,1,354,200,33216315,32961184,255131,783.9110104220969
1747961128456128,33163324,1,355,200,33301855,33053744,248111,806.0908222529432
1747961128550774,33255884,1,356,200,33396501,33146304,250197,799.3700963640651
1747961128644792,33348444,1,357,200,33490519,33238864,251655,794.7388289523354
1747961128755508,33441004,1,358,200,33601235,33331424,269811,741.2596224764742
1747961128837556,33536684,1,359,200,33683283,33427104,256179,780.7041170431612
1747961128922947,33629244,1,360,200,33768674,33519664,249010,803.180595156821
1747961129042359,33721804,1,361,200,33888086,33612224,275862,725.0001812500453
1747961129124246,33814364,1,362,200,33969973,33704784,265189,754.1790949096682
1747961129206319,33906924,1,363,200,34052046,33797344,254702,785.2313684227058
1747961129500215,34193964,1,366,200,34345942,34084384,261558,764.6487585927404
1747961129590609,34289644,1,367,200,34436336,34180064,256272,780.420802896922
1747961129803598,34481004,1,369,200,34649325,34371424,277901,719.6807496194688
1747961129893869,34573564,1,370,200,34739596,34463984,275612,725.6578088036805
1747961129971981,34669244,1,371,200,34817708,34559664,258044,775.0616173985832
1747961130065944,34761804,1,372,200,34911671,34652224,259447,770.8703511699886
1747961130168569,34857484,1,373,200,35014296,34747904,266392,750.7732964953902
1747961130258470,34950044,1,374,200,35104197,34840464,263733,758.3427178244664
1747961130360498,35042604,1,375,200,35206225,34933024,273201,732.0617420873276
1747961130459269,35135164,1,376,200,35304996,35025584,279412,715.788870914635
1747961130549560,35230844,1,377,200,35395287,35121264,274023,729.8657411969068
1747961130634770,35323404,1,378,200,35480497,35213824,266673,749.9821879230368
1747961130852605,35514764,1,380,200,35698332,35405184,293148,682.2492392920982
1747961130926392,35607324,1,381,200,35772119,35497744,274375,728.9293849658314
1747961131011802,35699884,1,382,200,35857529,35590304,267225,748.4329684722612
1747961131110716,35792444,1,383,200,35956443,35682864,273579,731.0502633608573
1747961131196302,35885004,1,384,200,36042029,35775424,266605,750.173477616699
